"20140203_FeBPY_spectrum - RawData"
"Wavelength nm." "Abs."
200.00 1.4929
201.00 1.4476
202.00 1.3926
203.00 1.3523
204.00 1.3140
205.00 1.2747
206.00 1.2499
207.00 1.2157
208.00 1.1947
209.00 1.1607
210.00 1.1354
211.00 1.1048
212.00 1.0692
213.00 1.0288
214.00 0.9854
215.00 0.9379
216.00 0.8913
217.00 0.8478
218.00 0.7984
219.00 0.7504
220.00 0.7019
221.00 0.6597
222.00 0.6180
223.00 0.5788
224.00 0.5442
225.00 0.5165
226.00 0.4915
227.00 0.4731
228.00 0.4594
229.00 0.4476
230.00 0.4441
231.00 0.4418
232.00 0.4437
233.00 0.4513
234.00 0.4599
235.00 0.4748
236.00 0.4928
237.00 0.5091
238.00 0.5255
239.00 0.5396
240.00 0.5571
241.00 0.5673
242.00 0.5816
243.00 0.5954
244.00 0.6108
245.00 0.6252
246.00 0.6336
247.00 0.6377
248.00 0.6331
249.00 0.6157
250.00 0.5903
251.00 0.5629
252.00 0.5371
253.00 0.5146
254.00 0.4937
255.00 0.4742
256.00 0.4572
257.00 0.4424
258.00 0.4276
259.00 0.4097
260.00 0.3843
261.00 0.3516
262.00 0.3260
263.00 0.3006
264.00 0.2774
265.00 0.2599
266.00 0.2504
267.00 0.2454
268.00 0.2446
269.00 0.2472
270.00 0.2592
271.00 0.2749
272.00 0.2935
273.00 0.3178
274.00 0.3460
275.00 0.3810
276.00 0.4223
277.00 0.4609
278.00 0.5048
279.00 0.5497
280.00 0.5988
281.00 0.6570
282.00 0.7196
283.00 0.7940
284.00 0.8806
285.00 0.9690
286.00 1.0510
287.00 1.1169
288.00 1.1645
289.00 1.1879
290.00 1.1998
291.00 1.2075
292.00 1.2229
293.00 1.2417
294.00 1.2749
295.00 1.3107
296.00 1.3559
297.00 1.3893
298.00 1.4027
299.00 1.3845
300.00 1.3308
301.00 1.2277
302.00 1.0766
303.00 0.9124
304.00 0.7527
305.00 0.6197
306.00 0.5116
307.00 0.4256
308.00 0.3573
309.00 0.3099
310.00 0.2672
311.00 0.2279
312.00 0.2064
313.00 0.1825
314.00 0.1633
315.00 0.1545
316.00 0.1433
317.00 0.1394
318.00 0.1365
319.00 0.1301
320.00 0.1264
321.00 0.1253
322.00 0.1250
323.00 0.1273
324.00 0.1253
325.00 0.1265
326.00 0.1257
327.00 0.1263
328.00 0.1279
329.00 0.1282
330.00 0.1318
331.00 0.1334
332.00 0.1344
333.00 0.1345
334.00 0.1378
335.00 0.1404
336.00 0.1437
337.00 0.1451
338.00 0.1451
339.00 0.1470
340.00 0.1494
341.00 0.1509
342.00 0.1520
343.00 0.1515
344.00 0.1552
345.00 0.1550
346.00 0.1525
347.00 0.1545
348.00 0.1543
349.00 0.1541
350.00 0.1558
351.00 0.1550
352.00 0.1537
353.00 0.1552
354.00 0.1519
355.00 0.1532
356.00 0.1462
357.00 0.1451
358.00 0.1440
359.00 0.1383
360.00 0.1379
361.00 0.1335
362.00 0.1314
363.00 0.1266
364.00 0.1275
365.00 0.1215
366.00 0.1212
367.00 0.1173
368.00 0.1128
369.00 0.1144
370.00 0.1106
371.00 0.1121
372.00 0.1083
373.00 0.1065
374.00 0.1043
375.00 0.1025
376.00 0.1038
377.00 0.1006
378.00 0.0980
379.00 0.0997
380.00 0.0983
381.00 0.0940
382.00 0.0965
383.00 0.0945
384.00 0.0939
385.00 0.0941
386.00 0.0910
387.00 0.0905
388.00 0.0896
389.00 0.0876
390.00 0.0871
391.00 0.0868
392.00 0.0851
393.00 0.0829
394.00 0.0820
395.00 0.0808
396.00 0.0794
397.00 0.0775
398.00 0.0745
399.00 0.0730
400.00 0.0723
401.00 0.0689
402.00 0.0680
403.00 0.0645
404.00 0.0643
405.00 0.0635
406.00 0.0609
407.00 0.0625
408.00 0.0613
409.00 0.0608
410.00 0.0601
411.00 0.0606
412.00 0.0598
413.00 0.0598
414.00 0.0600
415.00 0.0586
416.00 0.0581
417.00 0.0588
418.00 0.0571
419.00 0.0570
420.00 0.0566
421.00 0.0574
422.00 0.0554
423.00 0.0568
424.00 0.0555
425.00 0.0553
426.00 0.0550
427.00 0.0540
428.00 0.0555
429.00 0.0570
430.00 0.0559
431.00 0.0553
432.00 0.0558
433.00 0.0574
434.00 0.0578
435.00 0.0601
436.00 0.0603
437.00 0.0618
438.00 0.0639
439.00 0.0623
440.00 0.0652
441.00 0.0650
442.00 0.0673
443.00 0.0685
444.00 0.0716
445.00 0.0714
446.00 0.0715
447.00 0.0743
448.00 0.0768
449.00 0.0765
450.00 0.0790
451.00 0.0803
452.00 0.0825
453.00 0.0846
454.00 0.0855
455.00 0.0879
456.00 0.0897
457.00 0.0916
458.00 0.0939
459.00 0.0956
460.00 0.0971
461.00 0.0990
462.00 0.1022
463.00 0.1023
464.00 0.1060
465.00 0.1074
466.00 0.1109
467.00 0.1129
468.00 0.1152
469.00 0.1178
470.00 0.1209
471.00 0.1240
472.00 0.1261
473.00 0.1285
474.00 0.1302
475.00 0.1350
476.00 0.1353
477.00 0.1379
478.00 0.1399
479.00 0.1432
480.00 0.1450
481.00 0.1472
482.00 0.1494
483.00 0.1498
484.00 0.1516
485.00 0.1533
486.00 0.1540
487.00 0.1549
488.00 0.1559
489.00 0.1562
490.00 0.1573
491.00 0.1574
492.00 0.1579
493.00 0.1584
494.00 0.1593
495.00 0.1596
496.00 0.1594
497.00 0.1585
498.00 0.1590
499.00 0.1607
500.00 0.1598
501.00 0.1611
502.00 0.1613
503.00 0.1607
504.00 0.1626
505.00 0.1632
506.00 0.1640
507.00 0.1646
508.00 0.1644
509.00 0.1665
510.00 0.1677
511.00 0.1667
512.00 0.1690
513.00 0.1704
514.00 0.1705
515.00 0.1716
516.00 0.1724
517.00 0.1740
518.00 0.1736
519.00 0.1751
520.00 0.1759
521.00 0.1763
522.00 0.1764
523.00 0.1755
524.00 0.1767
525.00 0.1757
526.00 0.1751
527.00 0.1741
528.00 0.1726
529.00 0.1711
530.00 0.1682
531.00 0.1668
532.00 0.1663
533.00 0.1622
534.00 0.1619
535.00 0.1577
536.00 0.1549
537.00 0.1509
538.00 0.1479
539.00 0.1427
540.00 0.1400
541.00 0.1350
542.00 0.1321
543.00 0.1279
544.00 0.1226
545.00 0.1194
546.00 0.1148
547.00 0.1107
548.00 0.1055
549.00 0.1013
550.00 0.0962
551.00 0.0939
552.00 0.0877
553.00 0.0847
554.00 0.0810
555.00 0.0775
556.00 0.0739
557.00 0.0696
558.00 0.0651
559.00 0.0628
560.00 0.0592
561.00 0.0582
562.00 0.0557
563.00 0.0539
564.00 0.0500
565.00 0.0495
566.00 0.0462
567.00 0.0448
568.00 0.0420
569.00 0.0403
570.00 0.0404
571.00 0.0377
572.00 0.0349
573.00 0.0345
574.00 0.0333
575.00 0.0317
576.00 0.0303
577.00 0.0291
578.00 0.0299
579.00 0.0287
580.00 0.0280
581.00 0.0270
582.00 0.0268
583.00 0.0261
584.00 0.0256
585.00 0.0260
586.00 0.0239
587.00 0.0239
588.00 0.0246
589.00 0.0242
590.00 0.0228
591.00 0.0215
592.00 0.0216
593.00 0.0205
594.00 0.0223
595.00 0.0210
596.00 0.0216
597.00 0.0197
598.00 0.0194
599.00 0.0202
600.00 0.0200
601.00 0.0190
602.00 0.0199
603.00 0.0194
604.00 0.0189
605.00 0.0180
606.00 0.0182
607.00 0.0189
608.00 0.0186
609.00 0.0182
610.00 0.0177
611.00 0.0189
612.00 0.0176
613.00 0.0178
614.00 0.0164
615.00 0.0181
616.00 0.0171
617.00 0.0179
618.00 0.0171
619.00 0.0177
620.00 0.0170
621.00 0.0180
622.00 0.0169
623.00 0.0171
624.00 0.0163
625.00 0.0166
626.00 0.0159
627.00 0.0155
628.00 0.0171
629.00 0.0162
630.00 0.0172
631.00 0.0171
632.00 0.0157
633.00 0.0166
634.00 0.0171
635.00 0.0174
636.00 0.0172
637.00 0.0169
638.00 0.0183
639.00 0.0169
640.00 0.0163
641.00 0.0172
642.00 0.0171
643.00 0.0162
644.00 0.0171
645.00 0.0176
646.00 0.0175
647.00 0.0185
648.00 0.0162
649.00 0.0177
650.00 0.0176
651.00 0.0167
652.00 0.0178
653.00 0.0160
654.00 0.0169
655.00 0.0170
656.00 0.0168
657.00 0.0178
658.00 0.0181
659.00 0.0177
660.00 0.0191
661.00 0.0190
662.00 0.0179
663.00 0.0188
664.00 0.0181
665.00 0.0178
666.00 0.0174
667.00 0.0169
668.00 0.0192
669.00 0.0184
670.00 0.0194
671.00 0.0173
672.00 0.0180
673.00 0.0172
674.00 0.0183
675.00 0.0194
676.00 0.0192
677.00 0.0186
678.00 0.0194
679.00 0.0206
680.00 0.0182
681.00 0.0195
682.00 0.0189
683.00 0.0195
684.00 0.0185
685.00 0.0205
686.00 0.0198
687.00 0.0187
688.00 0.0210
689.00 0.0207
690.00 0.0209
691.00 0.0188
692.00 0.0185
693.00 0.0188
694.00 0.0189
695.00 0.0197
696.00 0.0196
697.00 0.0194
698.00 0.0189
699.00 0.0209
700.00 0.0184
701.00 0.0200
702.00 0.0197
703.00 0.0202
704.00 0.0235
705.00 0.0214
706.00 0.0185
707.00 0.0213
708.00 0.0212
709.00 0.0204
710.00 0.0213
711.00 0.0211
712.00 0.0209
713.00 0.0211
714.00 0.0194
715.00 0.0204
716.00 0.0204
717.00 0.0209
718.00 0.0216
719.00 0.0214
720.00 0.0213
721.00 0.0194
722.00 0.0217
723.00 0.0205
724.00 0.0199
725.00 0.0223
726.00 0.0204
727.00 0.0217
728.00 0.0206
729.00 0.0216
730.00 0.0217
731.00 0.0205
732.00 0.0220
733.00 0.0207
734.00 0.0219
735.00 0.0209
736.00 0.0230
737.00 0.0244
738.00 0.0247
739.00 0.0222
740.00 0.0227
741.00 0.0256
742.00 0.0255
743.00 0.0239
744.00 0.0210
745.00 0.0210
746.00 0.0218
747.00 0.0212
748.00 0.0238
749.00 0.0202
750.00 0.0227
751.00 0.0210
752.00 0.0206
753.00 0.0170
754.00 0.0228
755.00 0.0223
756.00 0.0212
757.00 0.0226
758.00 0.0198
759.00 0.0223
760.00 0.0204
761.00 0.0211
762.00 0.0193
763.00 0.0222
764.00 0.0209
765.00 0.0219
766.00 0.0201
767.00 0.0215
768.00 0.0222
769.00 0.0256
770.00 0.0210
771.00 0.0210
772.00 0.0207
773.00 0.0212
774.00 0.0211
775.00 0.0201
776.00 0.0242
777.00 0.0217
778.00 0.0216
779.00 0.0219
780.00 0.0193
781.00 0.0226
782.00 0.0182
783.00 0.0197
784.00 0.0218
785.00 0.0203
786.00 0.0214
787.00 0.0210
788.00 0.0180
789.00 0.0223
790.00 0.0206
791.00 0.0194
792.00 0.0208
793.00 0.0199
794.00 0.0192
795.00 0.0212
796.00 0.0217
797.00 0.0179
798.00 0.0197
799.00 0.0208
800.00 0.0222
801.00 0.0197
802.00 0.0206
803.00 0.0181
804.00 0.0202
805.00 0.0181
806.00 0.0196
807.00 0.0188
808.00 0.0233
809.00 0.0207
810.00 0.0204
811.00 0.0183
812.00 0.0214
813.00 0.0197
814.00 0.0181
815.00 0.0192
816.00 0.0194
817.00 0.0182
818.00 0.0204
819.00 0.0185
820.00 0.0193
821.00 0.0192
822.00 0.0205
823.00 0.0185
824.00 0.0199
825.00 0.0177
826.00 0.0184
827.00 0.0189
828.00 0.0181
829.00 0.0165
830.00 0.0175
831.00 0.0190
832.00 0.0172
833.00 0.0146
834.00 0.0179
835.00 0.0182
836.00 0.0183
837.00 0.0200
838.00 0.0197
839.00 0.0183
840.00 0.0155
841.00 0.0159
842.00 0.0209
843.00 0.0178
844.00 0.0160
845.00 0.0154
846.00 0.0160
847.00 0.0172
848.00 0.0162
849.00 0.0168
850.00 0.0159
851.00 0.0190
852.00 0.0165
853.00 0.0148
854.00 0.0237
855.00 0.0152
856.00 0.0198
857.00 0.0171
858.00 0.0161
859.00 0.0126
860.00 0.0163
861.00 0.0177
862.00 0.0157
863.00 0.0112
864.00 0.0104
865.00 0.0152
866.00 0.0081
867.00 0.0213
868.00 0.0255
869.00 0.0156
870.00 0.0182
871.00 0.0111
872.00 0.0132
873.00 0.0142
874.00 0.0114
875.00 0.0174
876.00 0.0173
877.00 0.0133
878.00 0.0241
879.00 0.0119
880.00 0.0188
881.00 0.0141
882.00 0.0153
883.00 0.0104
884.00 0.0091
885.00 0.0198
886.00 0.0142
887.00 0.0137
888.00 0.0151
889.00 0.0142
890.00 0.0125
891.00 0.0128
892.00 0.0135
893.00 0.0208
894.00 0.0155
895.00 0.0136
896.00 0.0098
897.00 0.0184
898.00 0.0120
899.00 0.0125
900.00 0.0121
901.00 0.0249
902.00 0.0125
903.00 0.0121
904.00 0.0198
905.00 0.0186
906.00 0.0113
907.00 0.0146
908.00 0.0082
909.00 0.0235
910.00 0.0135
911.00 0.0216
912.00 0.0116
913.00 0.0143
914.00 0.0117
915.00 0.0114
916.00 0.0093
917.00 0.0140
918.00 0.0112
919.00 0.0172
920.00 0.0098
921.00 0.0189
922.00 0.0146
923.00 0.0102
924.00 0.0117
925.00 0.0105
926.00 0.0119
927.00 0.0150
928.00 0.0119
929.00 0.0144
930.00 0.0102
931.00 0.0134
932.00 0.0160
933.00 0.0114
934.00 0.0120
935.00 0.0091
936.00 0.0128
937.00 0.0128
938.00 0.0120
939.00 0.0129
940.00 0.0145
941.00 0.0141
942.00 0.0136
943.00 0.0125
944.00 0.0116
945.00 0.0113
946.00 0.0105
947.00 0.0128
948.00 0.0109
949.00 0.0154
950.00 0.0115
951.00 0.0136
952.00 0.0124
953.00 0.0112
954.00 0.0125
955.00 0.0097
956.00 0.0098
957.00 0.0111
958.00 0.0084
959.00 0.0115
960.00 0.0125
961.00 0.0117
962.00 0.0132
963.00 0.0113
964.00 0.0108
965.00 0.0089
966.00 0.0100
967.00 0.0107
968.00 0.0102
969.00 0.0098
970.00 0.0120
971.00 0.0116
972.00 0.0131
973.00 0.0088
974.00 0.0113
975.00 0.0084
976.00 0.0100
977.00 0.0089
978.00 0.0108
979.00 0.0107
980.00 0.0101
981.00 0.0114
982.00 0.0125
983.00 0.0109
984.00 0.0112
985.00 0.0088
986.00 0.0086
987.00 0.0100
988.00 0.0102
989.00 0.0127
990.00 0.0099
991.00 0.0117
992.00 0.0103
993.00 0.0094
994.00 0.0101
995.00 0.0092
996.00 0.0094
997.00 0.0091
998.00 0.0083
999.00 0.0104
1000.00 0.0095
